Reference Number = 2408 Incident Particle: neutron  Target: Z= 94 A= 239 Ef = -6.090
En(MeV)     DWV    DWV(symm)     DW>      DW<      DWvso      Vv        Vhf      Vdisp    VHFder     DWVder    T12der   DVSder  +   DWS   =   Vs
 -6.000    0.015     0.014     0.002    -0.000    -0.002    46.458    46.443     0.015     0.000    -0.000     0.000    -0.000     0.076     0.076
 -5.950    0.024     0.022     0.003    -0.001    -0.003    46.443    46.419     0.024     0.000    -0.000     0.000    -0.000     0.118     0.118
 -5.900    0.032     0.029     0.004    -0.001    -0.004    46.427    46.395     0.032     0.000    -0.000     0.000    -0.000     0.160     0.160
 -5.850    0.041     0.037     0.005    -0.001    -0.005    46.411    46.371     0.041     0.000    -0.000     0.000    -0.000     0.202     0.202
 -5.800    0.049     0.045     0.006    -0.002    -0.006    46.396    46.346     0.049     0.000    -0.000     0.000    -0.000     0.244     0.244
 -5.750    0.058     0.053     0.007    -0.002    -0.007    46.380    46.322     0.058     0.000    -0.000     0.000    -0.000     0.286     0.286
 -5.700    0.067     0.060     0.008    -0.002    -0.008    46.365    46.298     0.067     0.000    -0.000     0.000    -0.000     0.328     0.328
 -5.650    0.075     0.068     0.009    -0.002    -0.009    46.349    46.274     0.075     0.000    -0.000     0.000    -0.000     0.369     0.369
 -5.600    0.084     0.076     0.010    -0.003    -0.009    46.334    46.250     0.084     0.000    -0.000     0.000    -0.000     0.411     0.411
 -5.550    0.092     0.084     0.011    -0.003    -0.010    46.319    46.226     0.092     0.000    -0.000     0.000    -0.000     0.453     0.453
 -5.500    0.101     0.091     0.012    -0.003    -0.011    46.303    46.203     0.101     0.000    -0.000     0.000    -0.000     0.494     0.494
 -5.450    0.109     0.099     0.014    -0.003    -0.012    46.288    46.179     0.109     0.000    -0.000     0.000    -0.000     0.536     0.536
 -5.400    0.118     0.107     0.015    -0.004    -0.013    46.272    46.155     0.118     0.000    -0.000     0.000    -0.000     0.577     0.577
 -5.350    0.126     0.115     0.016    -0.004    -0.014    46.257    46.131     0.126     0.000    -0.000     0.000    -0.000     0.619     0.619
 -5.300    0.135     0.122     0.017    -0.004    -0.015    46.242    46.107     0.135     0.000    -0.000     0.000    -0.000     0.660     0.660
 -5.250    0.143     0.130     0.018    -0.005    -0.016    46.226    46.083     0.143     0.000    -0.000     0.000    -0.000     0.701     0.701
 -5.200    0.152     0.138     0.019    -0.005    -0.017    46.211    46.059     0.152     0.000    -0.000     0.000    -0.000     0.742     0.742
 -5.150    0.160     0.146     0.020    -0.005    -0.018    46.195    46.035     0.160     0.000    -0.000     0.000    -0.000     0.783     0.783
 -5.100    0.169     0.153     0.021    -0.005    -0.019    46.180    46.011     0.169     0.000    -0.000     0.000    -0.000     0.823     0.823
 -5.050    0.177     0.161     0.022    -0.006    -0.020    46.165    45.987     0.177     0.000    -0.000     0.000    -0.000     0.864     0.864
 -5.000    0.186     0.169     0.023    -0.006    -0.021    46.149    45.964     0.186     0.000    -0.000     0.000    -0.000     0.904     0.904
 -4.950    0.194     0.176     0.024    -0.006    -0.022    46.134    45.940     0.194     0.000    -0.000     0.000    -0.000     0.945     0.945
 -4.900    0.203     0.184     0.025    -0.006    -0.023    46.119    45.916     0.203     0.000    -0.000     0.000    -0.000     0.985     0.985
 -4.850    0.211     0.192     0.026    -0.007    -0.024    46.104    45.892     0.211     0.000    -0.000     0.000    -0.000     1.025     1.025
 -4.800    0.220     0.200     0.027    -0.007    -0.025    46.088    45.868     0.220     0.000    -0.000     0.000    -0.000     1.065     1.065
 -4.750    0.229     0.207     0.028    -0.007    -0.026    46.073    45.845     0.229     0.000    -0.000     0.000    -0.000     1.104     1.104
 -4.700    0.237     0.215     0.029    -0.008    -0.027    46.058    45.821     0.237     0.000    -0.000     0.000    -0.000     1.144     1.144
 -4.650    0.246     0.223     0.030    -0.008    -0.028    46.043    45.797     0.246     0.000    -0.000     0.000    -0.000     1.183     1.183
 -4.600    0.254     0.231     0.032    -0.008    -0.029    46.027    45.773     0.254     0.000    -0.000     0.000    -0.000     1.222     1.222
 -4.550    0.263     0.238     0.033    -0.008    -0.030    46.012    45.750     0.263     0.000    -0.000     0.000    -0.000     1.261     1.261
 -4.500    0.271     0.246     0.034    -0.009    -0.031    45.997    45.726     0.271     0.000    -0.000     0.000    -0.000     1.300     1.300
 -4.450    0.280     0.254     0.035    -0.009    -0.032    45.982    45.702     0.280     0.000    -0.000     0.000    -0.000     1.338     1.338
 -4.400    0.288     0.262     0.036    -0.009    -0.033    45.967    45.678     0.288     0.000    -0.000     0.000    -0.000     1.376     1.376
 -4.350    0.297     0.269     0.037    -0.009    -0.034    45.951    45.655     0.297     0.000    -0.000     0.000    -0.000     1.414     1.414
 -4.300    0.305     0.277     0.038    -0.010    -0.035    45.936    45.631     0.305     0.000    -0.000     0.000    -0.000     1.452     1.452
 -4.250    0.314     0.285     0.039    -0.010    -0.036    45.921    45.607     0.314     0.000    -0.000     0.000    -0.000     1.490     1.490
 -4.200    0.322     0.292     0.040    -0.010    -0.037    45.906    45.584     0.322     0.000    -0.000     0.000    -0.000     1.527     1.527
 -4.150    0.331     0.300     0.041    -0.010    -0.038    45.891    45.560     0.331     0.000    -0.000     0.000    -0.000     1.564     1.564
 -4.100    0.339     0.308     0.042    -0.011    -0.039    45.876    45.537     0.339     0.000    -0.000     0.000    -0.000     1.601     1.601
 -4.050    0.348     0.316     0.043    -0.011    -0.040    45.861    45.513     0.348     0.000    -0.000     0.000    -0.000     1.638     1.638
 -4.000    0.356     0.323     0.044    -0.011    -0.040    45.846    45.489     0.356     0.000    -0.000     0.000    -0.000     1.674     1.674
 -3.950    0.365     0.331     0.045    -0.012    -0.041    45.831    45.466     0.365     0.000    -0.000     0.000    -0.000     1.711     1.711
 -3.900    0.373     0.339     0.046    -0.012    -0.042    45.816    45.442     0.373     0.000    -0.000     0.000    -0.000     1.747     1.747
 -3.850    0.382     0.347     0.047    -0.012    -0.043    45.801    45.419     0.382     0.000    -0.000     0.000    -0.000     1.782     1.782
 -3.800    0.390     0.354     0.048    -0.012    -0.044    45.786    45.395     0.390     0.000    -0.000     0.000    -0.000     1.818     1.818
 -3.750    0.399     0.362     0.050    -0.013    -0.045    45.770    45.372     0.399     0.000    -0.000     0.000    -0.000     1.853     1.853
 -3.700    0.407     0.370     0.051    -0.013    -0.046    45.755    45.348     0.407     0.000    -0.000     0.000    -0.000     1.888     1.888
 -3.650    0.416     0.377     0.052    -0.013    -0.047    45.740    45.325     0.416     0.000    -0.000     0.000    -0.000     1.922     1.922
 -3.600    0.424     0.385     0.053    -0.013    -0.048    45.725    45.301     0.424     0.000    -0.000     0.000    -0.000     1.957     1.957
 -3.550    0.433     0.393     0.054    -0.014    -0.049    45.711    45.278     0.433     0.000    -0.000     0.000    -0.000     1.991     1.991
 -3.500    0.441     0.401     0.055    -0.014    -0.050    45.696    45.254     0.441     0.000    -0.000     0.000    -0.000     2.025     2.025
 -3.450    0.450     0.408     0.056    -0.014    -0.051    45.681    45.231     0.450     0.000    -0.000     0.000    -0.000     2.058     2.058
 -3.400    0.458     0.416     0.057    -0.015    -0.052    45.666    45.207     0.458     0.000    -0.000     0.000    -0.000     2.091     2.091
 -3.350    0.467     0.424     0.058    -0.015    -0.053    45.651    45.184     0.467     0.000    -0.000     0.000    -0.000     2.124     2.124
 -3.300    0.475     0.431     0.059    -0.015    -0.054    45.636    45.160     0.475     0.000    -0.000     0.000    -0.000     2.157     2.157
 -3.250    0.484     0.439     0.060    -0.015    -0.055    45.621    45.137     0.484     0.000    -0.000     0.000    -0.000     2.189     2.189
 -3.200    0.492     0.447     0.061    -0.016    -0.056    45.606    45.114     0.492     0.000    -0.000     0.000    -0.000     2.221     2.221
 -3.150    0.501     0.455     0.062    -0.016    -0.057    45.591    45.090     0.501     0.000    -0.000     0.000    -0.000     2.253     2.253
 -3.100    0.509     0.462     0.063    -0.016    -0.058    45.576    45.067     0.509     0.000    -0.000     0.000    -0.000     2.285     2.285
 -3.050    0.518     0.470     0.064    -0.016    -0.059    45.561    45.043     0.518     0.000    -0.000     0.000    -0.000     2.316     2.316
 -3.000    0.526     0.478     0.065    -0.017    -0.060    45.547    45.020     0.526     0.000    -0.000     0.000    -0.000     2.347     2.347
 -2.950    0.535     0.485     0.067    -0.017    -0.061    45.532    44.997     0.535     0.000    -0.000     0.000    -0.000     2.377     2.377
 -2.900    0.543     0.493     0.068    -0.017    -0.062    45.517    44.973     0.543     0.000    -0.000     0.000    -0.000     2.407     2.407
 -2.850    0.552     0.501     0.069    -0.017    -0.063    45.502    44.950     0.552     0.000    -0.000     0.000    -0.000     2.437     2.437
 -2.800    0.560     0.508     0.070    -0.018    -0.064    45.487    44.927     0.560     0.000    -0.000     0.000    -0.000     2.467     2.467
 -2.750    0.569     0.516     0.071    -0.018    -0.065    45.472    44.904     0.569     0.000    -0.000     0.000    -0.000     2.496     2.496
 -2.700    0.577     0.524     0.072    -0.018    -0.066    45.458    44.880     0.577     0.000    -0.000     0.000    -0.000     2.525     2.525
 -2.650    0.586     0.532     0.073    -0.019    -0.067    45.443    44.857     0.586     0.000    -0.000     0.000    -0.000     2.554     2.554
 -2.600    0.594     0.539     0.074    -0.019    -0.068    45.428    44.834     0.594     0.000    -0.000     0.000    -0.000     2.582     2.582
 -2.550    0.603     0.547     0.075    -0.019    -0.069    45.413    44.811     0.603     0.000    -0.000     0.000    -0.000     2.610     2.610
 -2.500    0.611     0.555     0.076    -0.019    -0.070    45.399    44.787     0.611     0.000    -0.000     0.000    -0.000     2.637     2.637
 -2.450    0.620     0.562     0.077    -0.020    -0.070    45.384    44.764     0.620     0.000    -0.000     0.000    -0.000     2.665     2.665
 -2.400    0.628     0.570     0.078    -0.020    -0.071    45.369    44.741     0.628     0.000    -0.000     0.000    -0.000     2.692     2.692
 -2.350    0.637     0.578     0.079    -0.020    -0.072    45.354    44.718     0.637     0.000    -0.000     0.000    -0.000     2.718     2.718
 -2.300    0.645     0.585     0.080    -0.020    -0.073    45.340    44.694     0.645     0.000    -0.000     0.000    -0.000     2.745     2.745
 -2.250    0.654     0.593     0.081    -0.021    -0.074    45.325    44.671     0.654     0.000    -0.000     0.000    -0.000     2.771     2.771
 -2.200    0.662     0.601     0.082    -0.021    -0.075    45.310    44.648     0.662     0.000    -0.000     0.000    -0.000     2.796     2.796
 -2.150    0.671     0.609     0.083    -0.021    -0.076    45.296    44.625     0.671     0.000    -0.000     0.000    -0.000     2.821     2.821
 -2.100    0.679     0.616     0.085    -0.022    -0.077    45.281    44.602     0.679     0.000    -0.000     0.000    -0.000     2.846     2.846
 -2.050    0.688     0.624     0.086    -0.022    -0.078    45.266    44.579     0.688     0.000    -0.000     0.000    -0.000     2.871     2.871
 -2.000    0.696     0.632     0.087    -0.022    -0.079    45.252    44.556     0.696     0.000    -0.000     0.000    -0.000     2.895     2.895
 -1.950    0.705     0.639     0.088    -0.022    -0.080    45.237    44.533     0.705     0.000    -0.000     0.000    -0.000     2.919     2.919
 -1.900    0.713     0.647     0.089    -0.023    -0.081    45.223    44.509     0.713     0.000    -0.000     0.000    -0.000     2.943     2.943
 -1.850    0.722     0.655     0.090    -0.023    -0.082    45.208    44.486     0.722     0.000    -0.000     0.000    -0.000     2.966     2.966
 -1.800    0.730     0.662     0.091    -0.023    -0.083    45.193    44.463     0.730     0.000    -0.000     0.000    -0.000     2.989     2.989
 -1.750    0.739     0.670     0.092    -0.023    -0.084    45.179    44.440     0.739     0.000    -0.000     0.000    -0.000     3.012     3.012
 -1.700    0.747     0.678     0.093    -0.024    -0.085    45.164    44.417     0.747     0.000    -0.000     0.000    -0.000     3.034     3.034
 -1.650    0.755     0.685     0.094    -0.024    -0.086    45.150    44.394     0.755     0.000    -0.000     0.000    -0.000     3.056     3.056
 -1.600    0.764     0.693     0.095    -0.024    -0.087    45.135    44.371     0.764     0.000    -0.000     0.000    -0.000     3.078     3.078
 -1.550    0.772     0.701     0.096    -0.024    -0.088    45.121    44.348     0.772     0.000    -0.000     0.000    -0.000     3.099     3.099
 -1.500    0.781     0.708     0.097    -0.025    -0.089    45.106    44.325     0.781     0.000    -0.000     0.000    -0.000     3.120     3.120
 -1.450    0.789     0.716     0.098    -0.025    -0.090    45.092    44.302     0.789     0.000    -0.000     0.000    -0.000     3.140     3.140
 -1.400    0.798     0.724     0.099    -0.025    -0.091    45.077    44.279     0.798     0.000    -0.000     0.000    -0.000     3.160     3.160
 -1.350    0.806     0.731     0.100    -0.026    -0.092    45.063    44.256     0.806     0.000    -0.000     0.000    -0.000     3.180     3.180
 -1.300    0.815     0.739     0.102    -0.026    -0.093    45.048    44.233     0.815     0.000    -0.000     0.000    -0.000     3.200     3.200
 -1.250    0.823     0.747     0.103    -0.026    -0.094    45.034    44.210     0.823     0.000    -0.000     0.000    -0.000     3.219     3.219
 -1.200    0.832     0.754     0.104    -0.026    -0.095    45.019    44.188     0.832     0.000    -0.000     0.000    -0.000     3.238     3.238
 -1.150    0.840     0.762     0.105    -0.027    -0.096    45.005    44.165     0.840     0.000    -0.000     0.000    -0.000     3.257     3.257
 -1.100    0.848     0.770     0.106    -0.027    -0.097    44.990    44.142     0.848     0.000    -0.000     0.000    -0.000     3.275     3.275
 -1.050    0.857     0.777     0.107    -0.027    -0.098    44.976    44.119     0.857     0.000    -0.000     0.000    -0.000     3.293     3.293
 -1.000    0.865     0.785     0.108    -0.027    -0.099    44.961    44.096     0.865     0.000    -0.000     0.000    -0.000     3.310     3.310
 -0.950    0.874     0.793     0.109    -0.028    -0.099    44.947    44.073     0.874     0.000    -0.000     0.000    -0.000     3.327     3.327
 -0.900    0.882     0.800     0.110    -0.028    -0.100    44.933    44.050     0.882     0.000    -0.000     0.000    -0.000     3.344     3.344
 -0.850    0.891     0.808     0.111    -0.028    -0.101    44.918    44.027     0.891     0.000    -0.000     0.000    -0.000     3.361     3.361
 -0.800    0.899     0.815     0.112    -0.028    -0.102    44.904    44.005     0.899     0.000    -0.000     0.000    -0.000     3.377     3.377
 -0.750    0.908     0.823     0.113    -0.029    -0.103    44.889    43.982     0.908     0.000    -0.000     0.000    -0.000     3.393     3.393
 -0.700    0.916     0.831     0.114    -0.029    -0.104    44.875    43.959     0.916     0.000    -0.000     0.000    -0.000     3.408     3.408
 -0.650    0.924     0.838     0.115    -0.029    -0.105    44.861    43.936     0.924     0.000    -0.000     0.000    -0.000     3.424     3.424
 -0.600    0.933     0.846     0.116    -0.030    -0.106    44.846    43.913     0.933     0.000    -0.000     0.000    -0.000     3.439     3.439
 -0.550    0.941     0.854     0.117    -0.030    -0.107    44.832    43.891     0.941     0.000    -0.000     0.000    -0.000     3.453     3.453
 -0.500    0.950     0.861     0.118    -0.030    -0.108    44.818    43.868     0.950     0.000    -0.000     0.000    -0.000     3.467     3.467
 -0.450    0.958     0.869     0.120    -0.030    -0.109    44.803    43.845     0.958     0.000    -0.000     0.000    -0.000     3.481     3.481
 -0.400    0.967     0.877     0.121    -0.031    -0.110    44.789    43.822     0.967     0.000    -0.000     0.000    -0.000     3.495     3.495
 -0.350    0.975     0.884     0.122    -0.031    -0.111    44.775    43.800     0.975     0.000    -0.000     0.000    -0.000     3.508     3.508
 -0.300    0.983     0.892     0.123    -0.031    -0.112    44.760    43.777     0.983     0.000    -0.000     0.000    -0.000     3.521     3.521
 -0.250    0.992     0.899     0.124    -0.031    -0.113    44.746    43.754     0.992     0.000    -0.000     0.000    -0.000     3.534     3.534
 -0.200    1.000     0.907     0.125    -0.032    -0.114    44.732    43.732     1.000     0.000    -0.000     0.000    -0.000     3.546     3.546
 -0.150    1.009     0.915     0.126    -0.032    -0.115    44.718    43.709     1.009     0.000    -0.000     0.000    -0.000     3.558     3.558
 -0.100    1.017     0.922     0.127    -0.032    -0.116    44.703    43.686     1.017     0.000    -0.000     0.000    -0.000     3.570     3.570
 -0.050    1.025     0.930     0.128    -0.033    -0.117    44.689    43.664     1.025     0.000    -0.000     0.000    -0.000     3.582     3.582
  0.000    1.034     0.937     0.129    -0.033    -0.118    44.675    43.641     1.034     0.000    -0.000     0.000    -0.000     3.593     3.593
  0.050    1.042     0.945     0.130    -0.033    -0.119    44.661    43.618     1.042     0.000    -0.000     0.000    -0.000     3.604     3.604
  0.100    1.051     0.953     0.131    -0.033    -0.120    44.646    43.596     1.051     0.000    -0.000     0.000    -0.000     3.614     3.614
  0.150    1.059     0.960     0.132    -0.034    -0.121    44.632    43.573     1.059     0.000    -0.000     0.000    -0.000     3.624     3.624
  0.200    1.067     0.968     0.133    -0.034    -0.122    44.618    43.551     1.067     0.000    -0.000     0.000    -0.000     3.634     3.634
  0.250    1.076     0.976     0.134    -0.034    -0.123    44.604    43.528     1.076     0.000    -0.000     0.000    -0.000     3.644     3.644
  0.300    1.084     0.983     0.135    -0.034    -0.124    44.590    43.506     1.084     0.000    -0.000     0.000    -0.000     3.653     3.653
  0.350    1.093     0.991     0.137    -0.035    -0.125    44.576    43.483     1.093     0.000    -0.000     0.000    -0.000     3.662     3.662
  0.400    1.101     0.998     0.138    -0.035    -0.126    44.561    43.460     1.101     0.000    -0.000     0.000    -0.000     3.671     3.671
  0.450    1.109     1.006     0.139    -0.035    -0.127    44.547    43.438     1.109     0.000    -0.000     0.000    -0.000     3.679     3.679
  0.500    1.118     1.013     0.140    -0.035    -0.127    44.533    43.415     1.118     0.000    -0.000     0.000    -0.000     3.687     3.687
  0.550    1.126     1.021     0.141    -0.036    -0.128    44.519    43.393     1.126     0.000    -0.000     0.000    -0.000     3.695     3.695
  0.600    1.135     1.029     0.142    -0.036    -0.129    44.505    43.370     1.135     0.000    -0.000     0.000    -0.000     3.703     3.703
  0.650    1.143     1.036     0.143    -0.036    -0.130    44.491    43.348     1.143     0.000    -0.000     0.000    -0.000     3.710     3.710
